# wavelength[angstrom]  transmittance
4102.5  0.0137
4106.6  0.0093
4110.6  0.0134
4114.7  0.0123
4118.8  0.0139
4122.9  0.0129
4127.0  0.0125
4131.0  0.0114
4135.1  0.0082
4139.2  0.0141
4143.3  0.0086
4147.3  0.0132
4151.4  0.0090
4155.5  0.0113
4159.6  0.0082
4163.7  0.0096
4167.7  0.0164
4171.8  0.0075
4175.9  0.0107
4180.0  0.0083
4184.1  0.0128
4188.2  0.0121
4192.2  0.0077
4196.3  0.0092
4200.4  0.0063
4204.5  0.0073
4208.6  0.0056
4212.7  0.0106
4216.7  0.0073
4220.8  0.0070
4224.9  0.0074
4229.0  0.0063
4233.1  0.0099
4237.2  0.0092
4241.3  0.0096
4245.4  0.0108
4249.5  0.0062
4253.5  0.0085
4257.6  0.0165
4261.7  0.0336
4265.8  0.0718
4269.9  0.1557
4274.0  0.2775
4278.1  0.4212
4282.2  0.5816
4286.3  0.7308
4290.4  0.8537
4294.5  0.9316
4298.6  0.9632
4302.7  0.9665
4306.8  0.9621
4310.9  0.9437
4315.0  0.8856
4319.1  0.7866
4323.2  0.6578
4327.3  0.5062
4331.4  0.3427
4335.5  0.1948
4339.6  0.0995
4343.7  0.0508
4347.8  0.0239
4351.9  0.0100
4356.0  0.0065
4360.1  0.0067
4364.2  0.0076
4368.3  0.0058
4372.4  0.0064
4376.5  0.0083
4380.6  0.0094
4384.7  0.0064
4388.8  0.0067
4392.9  0.0055
4397.0  0.0056
4401.1  0.0079
4405.2  0.0061
4409.3  0.0073
4413.4  0.0026
4417.6  0.0059
4421.7  0.0065
4425.8  0.0052
4429.9  0.0073
4434.0  0.0062
4438.1  0.0069
4442.2  0.0072
4446.3  0.0034
4450.4  0.0063
4454.6  0.0048
4458.7  0.0043
4462.8  0.0048
4466.9  0.0066
4471.0  0.0037
4475.1  0.0071
4479.2  0.0052
4483.4  0.0055
4487.5  0.0088
4491.6  0.0048
4495.7  0.0103
4499.8  0.0068