# wavelength[angstrom] transmittance
 4400.9  0.0008
 4405.0 -0.0001
 4409.1  0.0000
 4413.2  0.0009
 4417.3  0.0013
 4421.4  0.0002
 4425.5 -0.0005
 4429.7  0.0006
 4433.8  0.0017
 4437.9  0.0010
 4442.0 -0.0002
 4446.1 -0.0009
 4450.2 -0.0012
 4454.4 -0.0003
 4458.5  0.0019
 4462.6  0.0035
 4466.7  0.0027
 4470.8  0.0007
 4474.9 -0.0007
 4479.1 -0.0005
 4483.2  0.0004
 4487.3  0.0006
 4491.4 -0.0003
 4495.6 -0.0005
 4499.7  0.0007
 4503.8  0.0017
 4507.9  0.0006
 4512.1 -0.0012
 4516.2 -0.0009
 4520.3  0.0009
 4524.4  0.0006
 4528.6 -0.0015
 4532.7 -0.0015
 4536.8  0.0012
 4540.9  0.0027
 4545.1  0.0008
 4549.2 -0.0019
 4553.3 -0.0024
 4557.4 -0.0015
 4561.6 -0.0012
 4565.7 -0.0010
 4569.8  0.0001
 4574.0  0.0016
 4578.1  0.0017
 4582.2  0.0008
 4586.4  0.0009
 4590.5  0.0011
 4594.6  0.0006
 4598.8  0.0009
 4602.9  0.0038
 4607.0  0.0083
 4611.2  0.0140
 4615.3  0.0237
 4619.4  0.0420
 4623.6  0.0738
 4627.7  0.1236
 4631.9  0.1922
 4636.0  0.2738
 4640.1  0.3632
 4644.3  0.4602
 4648.4  0.5643
 4652.5  0.6704
 4656.7  0.7694
 4660.8  0.8487
 4665.0  0.8999
 4669.1  0.9249
 4673.3  0.9324
 4677.4  0.9301
 4681.5  0.9230
 4685.7  0.9141
 4689.8  0.9067
 4694.0  0.9035
 4698.1  0.9031
 4702.3  0.9000
 4706.4  0.8886
 4710.5  0.8629
 4714.7  0.8191
 4718.8  0.7612
 4723.0  0.6978
 4727.1  0.6312
 4731.3  0.5558
 4735.4  0.4654
 4739.6  0.3613
 4743.7  0.2542
 4747.9  0.1601
 4752.0  0.0911
 4756.2  0.0494
 4760.3  0.0276
 4764.5  0.0163
 4768.6  0.0099
 4772.8  0.0067
 4776.9  0.0055
 4781.1  0.0045
 4785.3  0.0030
 4789.4  0.0013
 4793.6 -0.0001
 4797.7 -0.0005
 4801.9  0.0001
 4806.0  0.0012
 4810.2  0.0018
 4814.3  0.0012
 4818.5  0.0001
 4822.7 -0.0005
 4826.8 -0.0004
 4831.0  0.0003
 4835.1  0.0007
 4839.3  0.0001
 4843.5 -0.0004
 4847.6 -0.0000
 4851.8  0.0000
 4855.9 -0.0003
 4860.1  0.0000
 4864.3  0.0011
 4868.4  0.0013
 4872.6  0.0004
 4876.8 -0.0002
 4880.9 -0.0002
 4885.1 -0.0003
 4889.3 -0.0003
 4893.4  0.0005
 4897.6  0.0004